Frequency,R_Quad1,R_Quad2,R_Quad3,R_Quad4,X_Quad1,X_Quad2,X_Quad3,X_Quad4
40000.000,69.170,66.478,70.604,64.152,273.208,266.852,269.459,262.415
40310.000,77.536,74.569,79.204,71.680,284.432,277.548,280.505,272.839
40620.000,87.183,83.757,89.088,80.563,296.288,289.077,292.168,284.045
40930.000,98.427,94.633,100.905,90.802,309.003,301.024,304.652,295.856
41240.000,111.733,107.263,114.597,102.767,322.446,313.803,317.395,308.218
41550.000,127.740,122.299,131.190,116.739,336.308,326.802,330.481,321.138
41860.000,146.025,139.846,150.003,133.389,350.207,339.966,344.136,334.154
42170.000,168.130,160.029,172.550,152.682,364.330,353.212,356.956,347.269
42480.000,194.307,183.995,198.878,175.423,377.395,365.793,369.071,360.185
42790.000,224.691,212.320,229.590,202.096,389.482,377.852,379.643,372.330
43100.000,259.394,245.084,264.921,233.255,399.059,387.482,387.523,382.502
43410.000,300.386,282.832,305.668,268.940,404.932,394.048,391.558,389.966
43720.000,346.595,325.934,352.392,309.936,405.425,395.512,388.757,392.982
44030.000,396.646,373.772,402.490,355.712,398.076,390.244,377.757,389.558
44340.000,451.277,425.216,454.261,405.469,379.936,375.050,355.522,377.752
44650.000,506.616,477.832,505.239,456.684,348.615,347.969,319.997,355.314
44960.000,557.039,527.001,550.112,506.123,302.654,307.435,271.067,320.044
45270.000,598.087,568.269,583.794,549.783,243.948,253.740,211.337,272.052
45580.000,625.188,598.128,602.956,582.322,175.540,192.109,144.398,213.787
45890.000,635.123,611.986,606.291,601.086,102.536,122.958,75.949,148.538
46200.000,627.950,609.166,593.979,605.448,31.215,55.201,10.731,81.576
46510.000,605.782,592.873,568.954,594.135,-33.243,-7.885,-46.039,17.101
46820.000,573.238,565.632,535.987,571.970,-86.898,-62.272,-92.837,-39.293
47130.000,534.438,531.022,499.011,540.529,-129.710,-106.674,-129.032,-86.240
47440.000,493.683,493.082,460.964,504.796,-160.983,-140.140,-155.651,-123.815
47750.000,453.231,454.675,423.330,468.046,-183.135,-164.606,-174.486,-151.062
48060.000,414.310,417.414,388.268,430.649,-197.688,-181.066,-186.391,-171.079
48370.000,378.618,382.203,355.933,395.823,-206.217,-191.426,-192.838,-184.388
48680.000,346.054,350.157,326.544,362.782,-209.546,-197.262,-196.004,-191.798
48990.000,316.874,321.204,300.026,332.830,-210.267,-199.193,-196.135,-195.995
49300.000,290.810,295.311,276.362,305.534,-207.921,-198.508,-194.178,-196.171
49610.000,267.729,271.973,255.331,281.624,-204.166,-195.863,-190.624,-194.393
49920.000,247.432,251.245,236.430,259.932,-199.144,-191.896,-186.130,-191.423
50230.000,229.330,232.777,219.740,240.652,-193.544,-187.017,-180.818,-186.622
50540.000,213.204,216.419,204.844,223.646,-187.215,-181.398,-175.075,-181.502
50850.000,199.018,201.897,191.530,208.494,-180.826,-175.407,-169.173,-175.902
51160.000,186.441,188.757,179.659,195.144,-174.195,-169.249,-163.076,-170.048
51470.000,175.064,177.199,169.082,183.119,-167.703,-163.025,-157.050,-163.981
51780.000,165.016,166.881,159.569,172.251,-161.146,-156.731,-150.873,-157.808
52090.000,155.863,157.590,151.035,162.665,-154.690,-150.593,-145.003,-151.628
52400.000,147.787,149.227,143.493,154.076,-148.364,-144.431,-139.069,-145.549
52710.000,140.515,141.918,136.681,146.401,-142.222,-138.393,-133.300,-139.640
53020.000,134.030,135.145,130.492,139.454,-136.269,-132.496,-127.666,-133.846
53330.000,128.164,129.230,125.052,133.306,-130.474,-126.815,-122.269,-128.194
53640.000,123.009,123.974,120.140,127.856,-124.917,-121.424,-117.061,-122.789
53950.000,118.296,119.234,115.724,122.912,-119.546,-116.142,-112.100,-117.560
54260.000,114.113,114.950,111.761,118.465,-114.389,-111.144,-107.337,-112.801
54570.000,110.482,111.078,108.177,114.426,-109.530,-106.380,-102.770,-107.943
54880.000,107.074,107.558,104.880,110.709,-104.865,-101.819,-98.406,-103.334
55190.000,103.923,104.358,101.925,107.405,-100.392,-97.436,-94.228,-99.008
55500.000,101.155,101.450,99.192,104.378,-96.148,-93.233,-90.206,-94.735
55810.000,98.650,98.799,96.744,101.639,-92.122,-89.162,-86.326,-90.708
56120.000,96.327,96.389,94.531,99.192,-88.265,-85.249,-82.591,-86.834
56430.000,94.202,94.246,92.536,97.008,-84.547,-81.496,-79.026,-83.161
56740.000,92.320,92.323,90.744,94.981,-80.960,-77.885,-75.627,-79.630
57050.000,90.565,90.604,89.138,93.172,-77.534,-74.466,-72.374,-76.294
57360.000,88.955,89.036,87.732,91.460,-74.308,-71.219,-69.260,-73.082
57670.000,87.496,87.592,86.303,89.890,-71.162,-68.115,-66.340,-69.986
57980.000,86.144,86.278,85.044,88.481,-68.157,-65.125,-63.493,-67.042
58290.000,84.956,85.092,83.942,87.236,-65.238,-62.240,-60.772,-64.186
58600.000,83.911,84.075,82.952,86.127,-62.459,-59.493,-58.186,-61.478
58910.000,82.976,83.184,82.069,85.167,-59.839,-56.940,-55.749,-58.933
59220.000,82.115,82.292,81.257,84.213,-57.362,-54.539,-53.448,-56.601
59530.000,81.304,81.493,80.476,83.355,-55.042,-52.265,-51.291,-54.361
59840.000,80.519,80.706,79.717,82.479,-52.864,-50.165,-49.283,-52.287
60150.000,79.739,79.934,78.965,81.592,-50.784,-48.145,-47.399,-50.376
60460.000,78.936,79.122,78.156,80.691,-48.783,-46.207,-45.590,-48.478
60770.000,78.122,78.299,77.328,79.724,-46.857,-44.363,-43.858,-46.707
61080.000,77.300,77.440,76.397,78.701,-44.962,-42.551,-42.153,-44.923
61390.000,76.460,76.546,75.460,77.663,-43.096,-40.769,-40.452,-43.136
61700.000,75.610,75.608,74.463,76.555,-41.245,-38.992,-38.696,-41.345
62010.000,74.717,74.660,73.445,75.453,-39.373,-37.151,-36.867,-39.437
62320.000,73.838,73.697,72.477,74.361,-37.465,-35.264,-34.934,-37.448
62630.000,72.999,72.745,71.560,73.381,-35.475,-33.314,-32.913,-35.332
62940.000,72.239,71.900,70.772,72.501,-33.429,-31.268,-30.868,-33.175
63250.000,71.563,71.167,70.126,71.788,-31.329,-29.157,-28.761,-30.942
63560.000,71.025,70.570,69.582,71.241,-29.228,-27.020,-26.665,-28.793
63870.000,70.590,70.090,69.207,70.819,-27.153,-24.889,-24.596,-26.652
64180.000,70.203,69.719,68.913,70.495,-25.091,-22.784,-22.592,-24.600
64490.000,69.975,69.495,68.723,70.250,-23.107,-20.760,-20.628,-22.612
64800.000,69.837,69.336,68.585,70.100,-21.122,-18.825,-18.785,-20.718
65110.000,69.763,69.225,68.488,69.948,-19.276,-16.941,-16.989,-18.863
65420.000,69.716,69.181,68.429,69.877,-17.455,-15.127,-15.254,-17.080
65730.000,69.702,69.184,68.408,69.788,-15.707,-13.316,-13.582,-15.403
66040.000,69.708,69.179,68.400,69.796,-13.998,-11.678,-11.952,-13.720
66350.000,69.749,69.243,68.412,69.740,-12.349,-10.027,-10.375,-12.144
66660.000,69.849,69.256,68.446,69.708,-10.750,-8.415,-8.830,-10.563
66970.000,69.888,69.346,68.480,69.753,-9.159,-6.860,-7.290,-8.979
67280.000,69.953,69.447,68.543,69.754,-7.649,-5.303,-5.806,-7.430
67590.000,70.052,69.519,68.610,69.761,-6.145,-3.838,-4.360,-5.927
67900.000,70.196,69.547,68.639,69.768,-4.664,-2.309,-2.944,-4.440
68210.000,70.277,69.719,68.714,69.790,-3.172,-0.919,-1.526,-2.979
68520.000,70.395,69.754,68.812,69.857,-1.772,0.516,-0.067,-1.533
68830.000,70.502,69.919,68.897,69.901,-0.252,1.981,1.329,-0.068
69140.000,70.594,69.924,68.947,69.916,1.156,3.458,2.712,1.360
69450.000,70.818,70.070,69.058,69.986,2.602,4.924,4.174,2.828
69760.000,70.960,70.206,69.155,70.150,4.046,6.312,5.569,4.252
70070.000,71.126,70.311,69.293,70.248,5.539,7.855,6.998,5.723
70380.000,71.301,70.508,69.481,70.395,7.036,9.359,8.436,7.233
70690.000,71.559,70.715,69.646,70.556,8.518,10.862,9.889,8.701
71000.000,71.840,70.958,69.938,70.771,9.946,12.353,11.338,10.145
71310.000,72.170,71.337,70.214,71.084,11.470,13.825,12.782,11.597
71620.000,72.474,71.660,70.427,71.371,12.919,15.191,14.167,13.116
71930.000,72.958,71.942,70.767,71.699,14.329,16.732,15.550,14.536
72240.000,73.247,72.326,71.183,72.031,15.727,18.131,16.995,15.913
72550.000,73.764,72.789,71.544,72.386,17.107,19.591,18.373,17.289
72860.000,74.213,73.188,71.900,72.767,18.647,20.930,19.707,18.657
73170.000,74.637,73.679,72.258,73.163,20.028,22.391,21.077,20.074
73480.000,75.073,74.082,72.691,73.429,21.303,23.728,22.433,21.326
73790.000,75.608,74.661,73.067,73.801,22.600,25.042,23.758,22.833
74100.000,76.103,75.054,73.490,74.181,24.076,26.477,25.123,24.171
74410.000,76.662,75.483,73.882,74.602,25.282,27.707,26.417,25.509
74720.000,77.181,75.948,74.278,74.988,26.652,29.070,27.797,26.766
75030.000,77.641,76.407,74.681,75.334,28.087,30.453,29.123,28.143
75340.000,78.093,76.919,75.165,75.650,29.428,31.852,30.556,29.622
75650.000,78.599,77.357,75.525,76.022,30.814,33.297,31.875,31.041
75960.000,79.111,77.782,75.950,76.509,32.193,34.717,33.409,32.436
76270.000,79.670,78.301,76.350,76.878,33.685,36.217,34.810,34.037
76580.000,80.174,78.792,76.908,77.309,35.094,37.642,36.336,35.422
76890.000,80.728,79.319,77.403,77.824,36.617,39.215,37.692,37.010
77200.000,81.359,79.889,77.779,78.239,38.087,40.760,39.325,38.691
77510.000,82.007,80.535,78.360,78.772,39.756,42.358,40.758,40.278
77820.000,82.691,81.118,78.897,79.217,41.211,43.896,42.359,41.724
78130.000,83.385,81.780,79.450,79.728,42.881,45.529,44.060,43.503
78440.000,83.969,82.451,79.851,80.292,44.407,47.117,45.627,45.132
78750.000,84.727,83.083,80.553,80.801,46.157,48.757,47.344,46.826
79060.000,85.452,83.729,80.941,81.322,47.802,50.441,49.073,48.643
79370.000,86.077,84.390,81.618,81.847,49.572,52.220,50.969,50.386
79680.000,86.761,85.053,82.240,82.480,51.255,53.985,52.672,52.386
79990.000,87.568,85.734,82.836,82.985,53.208,55.871,54.776,54.280
80300.000,88.381,86.464,83.447,83.712,55.125,57.803,56.599,56.363
80610.000,89.230,87.217,84.147,84.297,57.093,59.806,58.687,58.426
80920.000,90.008,88.008,84.912,85.001,59.075,61.889,60.886,60.644
81230.000,90.892,88.761,85.608,85.772,61.265,64.070,63.100,62.861
81540.000,91.850,89.594,86.355,86.598,63.413,66.307,65.486,65.226
81850.000,92.815,90.564,87.205,87.390,65.747,68.681,67.911,67.670
82160.000,93.909,91.434,88.124,88.245,68.167,71.050,70.459,70.261
82470.000,94.946,92.489,89.094,89.148,70.672,73.649,72.999,72.885
82780.000,95.994,93.508,90.044,90.051,73.283,76.246,75.849,75.769
83090.000,97.156,94.499,91.084,91.025,76.034,79.080,78.687,78.748
83400.000,98.484,95.621,92.144,92.265,79.094,82.103,81.862,81.876
83710.000,99.696,96.965,93.378,93.287,82.279,85.277,85.185,85.035
84020.000,101.279,98.163,94.740,94.614,85.633,88.708,88.693,88.601
84330.000,102.906,99.660,96.249,95.979,89.258,92.321,92.383,92.461
84640.000,104.745,101.384,97.847,97.862,93.154,96.196,96.350,96.629
84950.000,106.853,103.317,99.838,99.577,97.227,100.395,100.725,100.869
85260.000,109.241,105.611,102.068,101.921,101.589,104.751,105.173,105.361
85570.000,111.957,108.133,104.549,104.343,106.075,109.285,109.849,110.087
85880.000,115.064,111.005,107.414,107.225,110.875,114.145,114.760,115.218
86190.000,118.554,114.274,110.743,110.441,115.833,119.112,120.004,120.287
86500.000,122.493,117.753,114.515,114.061,121.002,124.412,125.489,125.787
86810.000,126.951,122.124,118.629,118.279,126.391,129.868,131.173,131.555
87120.000,131.967,126.714,123.884,123.225,132.123,135.462,137.174,137.679
87430.000,137.938,132.203,129.689,128.905,137.815,141.404,143.187,143.930
87740.000,144.657,138.380,136.412,135.354,143.901,147.759,149.282,150.167
88050.000,152.137,145.582,144.231,143.185,149.533,153.475,155.287,156.290
88360.000,161.127,153.677,153.110,151.759,155.217,159.554,160.562,161.791
88670.000,170.813,163.097,162.830,161.414,160.102,164.959,165.103,166.804
88980.000,181.221,173.081,173.138,171.767,164.509,169.758,168.828,170.673
89290.000,192.779,183.962,183.666,182.462,168.182,173.506,171.669,173.897
89600.000,204.612,195.378,194.442,193.304,170.574,176.832,173.441,176.075
89910.000,217.301,207.219,205.048,203.987,172.238,178.759,174.952,177.541
90220.000,229.819,219.430,215.726,214.577,173.120,180.067,175.889,178.670
90530.000,242.509,231.438,226.116,225.241,172.689,180.983,176.323,179.655
90840.000,255.525,243.445,236.792,235.961,172.184,180.618,176.960,180.414
91150.000,268.574,255.602,247.871,247.014,170.490,180.831,177.303,181.170
91460.000,281.117,268.041,259.362,258.455,168.861,180.273,178.005,181.850
91770.000,294.473,280.481,271.484,270.512,166.382,179.244,178.181,182.537
92080.000,308.757,293.991,284.276,283.641,163.876,178.295,178.236,183.004
92390.000,323.201,308.209,298.095,297.471,160.585,176.939,177.828,182.898
92700.000,338.552,323.366,313.027,312.329,156.733,174.945,177.015,182.407
93010.000,354.712,339.292,328.850,328.325,151.703,172.352,175.300,181.333
93320.000,371.780,356.591,345.731,345.552,145.371,168.107,172.269,179.129
93630.000,389.869,374.607,364.034,364.001,137.258,162.957,168.207,175.653
93940.000,408.408,393.652,383.231,383.394,127.116,155.743,162.365,170.449
94250.000,426.772,412.866,402.898,404.025,114.672,146.529,154.399,163.540
94560.000,446.081,433.626,423.997,425.888,99.971,135.030,144.182,153.988
94870.000,464.522,454.124,444.869,448.185,82.025,121.016,131.768,142.440
95180.000,482.106,473.995,466.616,470.761,61.374,104.548,116.150,127.008
95490.000,498.204,494.474,487.538,492.966,37.681,84.549,97.722,108.773
95800.000,511.973,512.719,507.718,514.717,11.586,61.597,75.702,87.165
96110.000,523.624,529.838,526.508,535.297,-17.913,35.168,50.118,61.617
96420.000,530.946,544.369,543.196,553.810,-49.520,5.485,21.181,32.337
96730.000,535.174,556.057,557.045,569.323,-82.200,-27.095,-11.193,-0.749
97040.000,534.805,562.983,567.103,581.260,-117.003,-63.524,-46.574,-37.112
97350.000,531.111,566.363,572.631,588.389,-150.867,-100.320,-84.291,-76.140
97660.000,522.067,564.585,573.080,590.387,-184.640,-138.108,-123.271,-117.088
97970.000,508.657,557.626,568.288,586.564,-217.487,-176.008,-163.140,-158.881
98280.000,491.205,545.502,557.407,576.680,-247.041,-212.986,-202.612,-200.629
98590.000,469.769,528.451,541.099,560.466,-274.831,-248.188,-240.303,-240.631
98900.000,446.323,506.526,519.354,538.542,-299.183,-280.513,-275.243,-277.913
99210.000,420.608,480.816,492.958,511.827,-319.597,-309.148,-306.371,-311.254
99520.000,393.391,452.644,462.979,480.432,-336.023,-333.227,-332.450,-339.296
99830.000,365.209,421.266,430.369,446.380,-348.407,-352.931,-353.153,-362.088
100140.000,340.270,393.625,400.940,415.434,-355.810,-365.763,-366.456,-376.361
100450.000,304.753,351.862,357.713,370.185,-362.139,-377.267,-378.331,-389.624
100760.000,279.332,321.862,326.926,337.727,-363.121,-381.551,-381.711,-393.356
101070.000,255.469,293.856,298.315,307.585,-361.265,-382.010,-381.373,-393.049
101380.000,234.128,268.068,272.436,280.338,-357.302,-379.327,-377.924,-389.777
101690.000,214.402,244.510,249.536,256.128,-351.645,-374.234,-372.842,-384.291
102000.000,197.128,224.055,229.131,234.806,-345.373,-367.782,-366.287,-377.575
